OOIBase32 Version 1.0.0.8 Data File
++++++++++++++++++++++++++++++++++++
Date: Wednesday, January 23, 1980, 02:10:40
User: Valued Ocean Optics Customer
Spectrometer Serial Number: Unknown
Spectrometer Channel: Master
Integration Time (msec): 3
Spectra Averaged: 20
Boxcar Smoothing: 0
Correct for Electrical Dark: Disabled
Time Normalized: Disabled
Dual-beam Reference: Disabled
Reference Channel: Master
>>>>>Begin Spectral Data<<<<<
179.00	0.0000
179.38	0.0000
179.75	132.8358
180.13	108.0459
180.51	94.5204
180.88	138.5965
181.26	104.4118
181.64	121.5684
182.02	157.1425
182.39	140.8164
182.77	120.9678
183.15	148.0002
183.52	64.4736
183.90	128.3020
184.28	115.6250
184.65	114.8647
185.03	116.8829
185.41	80.6452
185.78	136.9862
186.16	118.5713
186.53	88.6364
186.91	197.6189
187.29	178.2612
187.66	84.2105
188.04	157.7779
188.42	-27.2730
188.79	-78.9476
189.17	-64.5163
189.55	-77.1428
189.92	-824.9781
190.30	1799.8932
190.67	-45.4546
191.05	-12.9030
191.43	-194.1182
191.80	-275.0010
192.18	-900.0407
192.56	-866.6548
192.93	650.0076
193.31	0.0000
193.68	-169.2301
194.06	274.9986
194.44	2650.0343
194.81	358.3299
195.19	-91.1768
195.56	254.5465
195.94	2.6313
196.32	50.0000
196.69	-192.3095
197.07	-88.2355
197.44	-75.0003
197.82	220.0012
198.19	1300.0229
198.57	1000.0916
198.95	0.0000
199.32	0.0000
199.70	-419.9997
200.07	-366.6624
200.45	-103.4485
200.82	-437.4983
201.20	449.9990
201.57	1699.9847
201.95	-273.3327
202.33	-31.4283
202.70	-123.3337
203.08	-466.6599
203.45	-71.0525
203.83	65.2173
204.20	-121.4276
204.58	-11.3637
204.95	-266.6671
205.33	-67.8569
205.70	-449.9695
206.08	-23.5295
206.45	-126.6663
206.83	-80.9520
207.20	-30.9093
207.58	600.0076
207.95	-824.9819
208.33	-362.5067
208.70	-66.6665
209.08	17.3911
209.45	-330.7687
209.83	-220.0002
210.20	-53.3335
210.58	-55.5555
210.95	0.0000
211.33	-38.4617
211.70	11.5386
212.08	-182.3536
212.45	0.0000
212.83	-81.5786
213.20	-28.5710
213.58	-4.3478
213.95	-111.1119
214.33	-188.8882
214.70	-99.9992
215.07	-24.9998
215.45	-500.0076
215.82	50.0010
216.20	-176.4693
216.57	-128.0005
216.95	-280.0003
217.32	-13.6365
217.70	13.0436
218.07	-2300.0305
218.44	-129.4118
218.82	-74.9995
219.19	-457.1466
219.57	-66.6665
219.94	-369.2301
220.32	-10.9375
220.69	466.6650
221.06	-65.0002
221.44	10.7144
221.81	-700.0000
222.19	-50.0000
222.56	309.0886
222.93	-57.1427
223.31	-440.0024
223.68	-186.6669
224.06	-619.9982
224.43	0.0000
224.80	-89.4742
225.18	14.2857
225.55	-9.6775
225.92	-35.4840
226.30	-336.3675
226.67	-27.0270
227.05	-85.7140
227.42	-188.8882
227.79	-71.4284
228.17	-170.5882
228.54	-333.3299
228.91	-73.3337
229.29	-1699.8932
229.66	3.1252
230.03	-540.0024
230.41	-200.0000
230.78	-22.2227
231.15	-21.0524
231.53	-274.9986
231.90	-64.5163
232.27	-25.7145
232.65	25.8065
233.02	-100.0000
233.39	-47.9999
233.77	-20.8334
234.14	-14.8935
234.51	216.6667
234.89	-156.2509
235.26	-27.7780
235.63	-178.5703
236.01	-9.9998
236.38	-414.2866
236.75	-81.8180
237.12	-82.6083
237.50	-375.0057
237.87	-191.6674
238.24	-83.3335
238.62	-68.9653
238.99	-1000.0916
239.36	-66.6665
239.73	6.8965
240.11	-1075.0172
240.48	-25.9258
240.85	1600.0229
241.23	0.0000
241.60	-93.3334
241.97	-56.0976
242.34	-266.6667
242.72	-80.0003
243.09	4.3481
243.46	-999.9898
243.83	-69.6970
244.21	-17.4999
244.58	-50.0003
244.95	-87.8785
245.32	30.3031
245.70	-330.0003
246.07	-155.9998
246.44	-100.0000
246.81	-58.0645
247.18	-52.3809
247.56	-143.4792
247.93	-3.1247
248.30	-104.0002
248.67	-118.1801
249.04	29.0321
249.42	17.6470
249.79	-16.2790
250.16	9.4340
250.53	-83.7207
250.90	-189.4746
251.28	-45.8332
251.65	-45.4545
252.02	10.0002
252.39	-30.3030
252.76	-5.9998
253.14	-75.8617
253.51	8.2193
253.88	-86.6669
254.25	-371.4208
254.62	0.0000
254.99	-66.6664
255.37	7.1422
255.74	-218.1801
256.11	-22.2224
256.48	4.5457
256.85	24.1383
257.22	53.6584
257.59	-2.5639
257.97	37.5000
258.34	47.6191
258.71	-47.9999
259.08	-42.8571
259.45	-4.1669
259.82	-34.4826
260.19	-24.9998
260.56	-51.8517
260.94	375.0010
261.31	-11.6279
261.68	-67.9999
262.05	25.9258
262.42	7.3171
262.79	357.1444
263.16	36.9564
263.53	-33.9999
263.90	-25.7141
264.28	-2.6313
264.65	23.8095
265.02	-80.0000
265.39	62.7450
265.76	-59.9999
266.13	40.9096
266.50	-57.5755
266.87	-2.5643
267.24	4.7622
267.61	-33.3331
267.98	3.9999
268.35	-1133.3198
268.72	-58.8236
269.09	-70.5882
269.46	-119.9997
269.84	-126.0872
270.21	23.8095
270.58	41.6667
270.95	-66.6671
271.32	411.1136
271.69	-205.5550
272.06	524.9976
272.43	-155.5576
272.80	-6.5215
273.17	-50.0000
273.54	88.5716
273.91	-81.5790
274.28	-900.0407
274.65	2.8573
275.02	-35.4842
275.39	-30.7692
275.76	-178.9484
276.13	9.6154
276.50	-10.0002
276.87	14.8148
277.24	-33.3332
277.61	-55.9998
277.98	-59.0906
278.35	-28.1248
278.72	-233.3333
279.09	31.5790
279.46	-17.8571
279.83	12.0001
280.20	24.4442
280.57	-16.0713
280.94	-22.6418
281.31	23.8095
281.67	5.6604
282.04	24.0002
282.41	-142.8578
282.78	40.6247
283.15	19.5654
283.52	19.0476
283.89	-24.9999
284.26	-17.0731
284.63	-237.4983
285.00	-22.7273
285.37	-35.9998
285.74	42.0289
286.11	-7.4073
286.48	52.9411
286.85	-80.0003
287.21	-78.5716
287.58	-16.0001
287.95	24.6152
288.32	34.2106
288.69	-59.4594
289.06	13.7931
289.43	-149.9990
289.80	-14.0351
290.17	32.3078
290.54	1.8183
290.90	-660.0006
291.27	96.8748
291.64	45.9460
292.01	26.0870
292.38	-52.4998
292.75	-45.0005
293.12	-21.2766
293.48	-21.7391
293.85	96.4284
294.22	32.5001
294.59	18.7502
294.96	-52.9411
295.33	-40.6245
295.70	41.2699
296.06	31.9148
296.43	-1.4494
296.80	-5.0001
297.17	14.0626
297.54	10.9092
297.91	13.8889
298.27	30.1886
298.64	32.7585
299.01	9.2593
299.38	14.2857
299.75	-108.3339
300.11	-15.2173
300.48	-15.9094
300.85	-6.6666
301.22	20.4819
301.59	9.8039
301.95	22.0001
302.32	33.3335
302.69	37.5000
303.06	23.2558
303.43	-4.0002
303.79	15.2779
304.16	6.7567
304.53	5.1285
304.90	25.7143
305.26	4.2858
305.63	-7.8948
306.00	6.5218
306.37	33.3334
306.73	28.5715
307.10	-4.9178
307.47	3.0769
307.84	-78.2609
308.20	22.9507
308.57	-6.9765
308.94	30.7694
309.31	-27.2731
309.67	-92.1567
310.04	-76.4701
310.41	-27.7778
310.77	29.6297
311.14	88.8888
311.51	-28.8135
311.88	0.0000
312.24	-25.0002
312.61	15.6250
312.98	-48.7806
313.34	-120.8334
313.71	10.8107
314.08	37.1796
314.44	30.2326
314.81	34.6938
315.18	46.0316
315.55	-6.9768
315.91	25.7143
316.28	4.2858
316.65	39.3939
317.01	4.2254
317.38	9.8591
317.75	9.2306
318.11	-20.5881
318.48	4.0000
318.84	-65.7897
319.21	0.0000
319.58	6.7798
319.94	-8.6957
320.31	17.4418
320.68	49.0197
321.04	-10.2567
321.41	15.6250
321.78	23.9436
322.14	38.3720
322.51	10.3897
322.87	26.0869
323.24	0.0000
323.61	-47.8258
323.97	39.3940
324.34	19.2308
324.70	45.3489
325.07	32.0987
325.44	-90.0002
325.80	4.7618
326.17	1.5386
326.53	42.3530
326.90	12.0482
327.27	38.0952
327.63	23.3332
328.00	13.5135
328.36	17.4602
328.73	11.8644
329.09	48.4210
329.46	20.6895
329.83	8.0459
330.19	11.6882
330.56	43.8358
330.92	-6.0001
331.29	-16.1766
331.65	25.0000
332.02	12.5000
332.38	16.6666
332.75	31.3434
333.11	27.6596
333.48	3.5294
333.84	20.1835
334.21	42.2536
334.58	-13.2352
334.94	-6.8966
335.31	11.7020
335.67	-23.6110
336.04	37.0371
336.40	17.8217
336.77	-29.1140
337.13	43.9253
337.50	16.1615
337.86	27.2727
338.22	15.1787
338.59	9.5239
338.95	28.7038
339.32	17.0732
339.68	35.2941
340.05	22.1154
340.41	-3.6145
340.78	-5.8252
341.14	14.5631
341.51	26.4706
341.87	0.9616
342.24	27.6786
342.60	17.8571
342.96	28.4615
343.33	11.6072
343.69	19.4029
344.06	27.7778
344.42	6.1538
344.79	-2.1978
345.15	14.4000
345.51	22.4806
345.88	23.0089
346.24	27.2728
346.61	19.8474
346.97	12.5000
347.34	9.7015
347.70	7.1429
348.06	-6.6037
348.43	8.3333
348.79	8.1482
349.16	24.0506
349.52	10.6383
349.88	15.3285
350.25	29.5454
350.61	27.4809
350.97	2.2728
351.34	4.6154
351.70	40.1315
352.07	31.8841
352.43	28.2895
352.79	3.8217
353.16	9.6970
353.52	13.6364
353.88	15.8228
354.25	12.5828
354.61	-9.0164
354.97	14.0741
355.34	2.7778
355.70	20.6060
356.06	19.1257
356.43	15.3061
356.79	36.5000
357.15	5.1948
357.52	21.7143
357.88	31.6666
358.24	23.1579
358.60	38.4211
358.97	24.3243
359.33	20.5128
359.69	24.8889
360.06	10.9948
360.42	16.0804
360.78	20.6278
361.14	20.3463
361.51	18.4314
361.87	26.0162
362.23	19.6078
362.60	27.2340
362.96	35.1351
363.32	22.5108
363.68	25.6302
364.05	15.7658
364.41	8.8462
364.77	30.1158
365.13	27.0993
365.50	34.9650
365.86	28.4281
366.22	34.1818
366.58	34.0580
366.95	28.1879
367.31	30.7958
367.67	23.7342
368.03	33.6538
368.39	35.6688
368.76	32.7433
369.12	30.3621
369.48	28.9190
369.84	29.3578
370.20	29.0909
370.57	36.3636
370.93	31.8681
371.29	36.8957
371.65	28.3784
372.01	37.5610
372.38	33.5038
372.74	33.9241
373.10	33.4135
373.46	38.3495
373.82	32.8704
374.18	31.6279
374.55	45.8525
374.91	40.1747
375.27	41.7040
375.63	41.0753
375.99	44.9275
376.35	43.2773
376.71	38.6892
377.08	42.8571
377.44	44.7217
377.80	48.0216
378.16	44.5652
378.52	42.7574
378.88	45.8182
379.24	43.6187
379.60	43.2956
379.97	44.8382
380.33	46.4939
380.69	47.3101
381.05	46.2555
381.41	50.0000
381.77	48.8856
382.13	47.9050
382.49	48.5526
382.85	47.0356
383.21	48.7021
383.57	52.0368
383.94	49.0123
384.30	52.1197
384.66	50.7638
385.02	55.4455
385.38	53.8025
385.74	51.9906
386.10	50.8215
386.46	49.0722
386.82	53.9419
387.18	53.1961
387.54	51.6260
387.90	55.5783
388.26	54.7431
388.62	57.1561
388.98	56.4797
389.34	55.4520
389.70	53.2153
390.06	53.5323
390.42	57.0335
390.78	57.2457
391.14	57.0332
391.50	59.6975
391.86	58.8091
392.22	59.3533
392.58	57.5637
392.94	59.7198
393.30	59.1740
393.66	60.7527
394.02	58.3142
394.38	59.3354
394.74	62.2741
395.10	61.8155
395.46	61.7007
395.82	63.9747
396.18	62.2238
396.54	62.1172
396.90	64.0026
397.26	63.9947
397.62	64.3774
397.98	64.4932
398.34	65.8031
398.70	64.6984
399.05	65.2291
399.41	66.0105
399.77	67.5892
400.13	67.7120
400.49	66.3963
400.85	68.6478
401.21	67.6822
401.57	70.1923
401.93	67.2747
402.29	70.0950
402.65	68.2606
403.00	71.1066
403.36	70.0776
403.72	71.3405
404.08	71.4286
404.44	71.6805
404.80	71.7445
405.16	71.8099
405.52	72.7233
405.87	73.6312
406.23	74.7400
406.59	72.2274
406.95	73.5158
407.31	74.2895
407.67	74.2908
408.03	74.1280
408.38	72.5071
408.74	73.7466
409.10	74.3085
409.46	74.3012
409.82	75.5266
410.17	74.0670
410.53	76.4419
410.89	75.1060
411.25	75.8679
411.61	74.9137
411.97	75.4500
412.32	75.5667
412.68	75.2917
413.04	77.0373
413.40	77.2294
413.75	75.4556
414.11	76.2059
414.47	75.9383
414.83	75.1374
415.19	76.8272
415.54	78.5118
415.90	76.4783
416.26	77.0088
416.62	76.8714
416.97	76.4014
417.33	76.9011
417.69	77.0141
418.05	77.1577
418.40	77.2066
418.76	75.7099
419.12	76.8086
419.48	75.8288
419.83	75.9855
420.19	75.7238
420.55	75.1299
420.90	77.4370
421.26	76.3733
421.62	76.7777
421.98	77.0822
422.33	78.5074
422.69	77.2205
423.05	77.2614
423.40	77.6102
423.76	77.9407
424.12	76.8640
424.47	77.2236
424.83	76.7442
425.19	76.7779
425.54	77.4098
425.90	77.0777
426.26	77.0476
426.61	76.3256
426.97	77.0741
427.33	75.8870
427.68	75.8296
428.04	77.1314
428.40	76.4805
428.75	77.3004
429.11	75.4505
429.47	78.0769
429.82	76.1017
430.18	76.1981
430.53	76.2180
430.89	76.3871
431.25	76.3707
431.60	76.7751
431.96	76.3200
432.31	75.9687
432.67	77.1202
433.03	75.6138
433.38	76.4832
433.74	76.4139
434.09	76.0844
434.45	76.1057
434.81	75.7872
435.16	76.5824
435.52	75.4497
435.87	76.0954
436.23	75.5302
436.58	76.4832
436.94	76.4578
437.30	76.1695
437.65	77.0702
438.01	76.0272
438.36	75.8537
438.72	74.9352
439.07	75.4761
439.43	76.0525
439.78	75.0122
440.14	76.3810
440.49	75.4555
440.85	76.7284
441.20	76.1380
441.56	76.3088
441.91	76.4724
442.27	75.7463
442.62	75.7313
442.98	74.9529
443.33	75.1087
443.69	75.3190
444.04	76.0100
444.40	76.6412
444.75	76.6355
445.11	75.7653
445.46	75.9198
445.82	75.7452
446.17	75.9464
446.53	76.0837
446.88	76.7059
447.23	76.5237
447.59	74.7329
447.94	75.2678
448.30	75.9106
448.65	75.4436
449.01	75.0671
449.36	75.0842
449.72	75.3243
450.07	76.3125
450.42	75.0288
450.78	76.1387
451.13	75.6757
451.49	75.4033
451.84	75.5954
452.19	74.8288
452.55	75.1861
452.90	75.2050
453.26	75.4746
453.61	75.4056
453.96	75.9211
454.32	75.5987
454.67	74.9444
455.02	75.2117
455.38	75.3345
455.73	75.5023
456.09	75.2270
456.44	75.9200
456.79	74.9803
457.15	75.0530
457.50	75.4563
457.85	76.1137
458.21	75.4074
458.56	75.6979
458.91	75.1775
459.27	75.5916
459.62	75.2891
459.97	76.0644
460.32	75.7556
460.68	74.8742
461.03	75.5211
461.38	75.7948
461.74	75.5025
462.09	74.8595
462.44	75.1612
462.80	75.4025
463.15	75.6452
463.50	75.5114
463.85	75.3162
464.21	75.8597
464.56	76.3111
464.91	75.4518
465.26	75.2995
465.62	75.6917
465.97	75.7573
466.32	74.7257
466.67	75.4060
467.03	75.4143
467.38	75.2359
467.73	75.5694
468.08	75.4534
468.44	75.8188
468.79	75.5245
469.14	75.3393
469.49	75.5227
469.85	75.5795
470.20	75.7992
470.55	75.7316
470.90	75.4783
471.25	74.9347
471.61	74.9491
471.96	75.0275
472.31	75.5737
472.66	75.7757
473.01	75.1604
473.36	75.9840
473.72	75.6741
474.07	75.5973
474.42	75.3194
474.77	75.6582
475.12	75.3044
475.47	75.6497
475.83	75.3811
476.18	75.5540
476.53	75.7584
476.88	74.8452
477.23	75.8988
477.58	75.2345
477.93	75.3923
478.28	75.4802
478.64	75.1993
478.99	75.5657
479.34	75.0248
479.69	75.8295
480.04	75.6927
480.39	75.5297
480.74	75.7982
481.09	75.7737
481.44	76.1464
481.79	75.3471
482.15	75.6343
482.50	75.4175
482.85	75.6287
483.20	75.4723
483.55	75.7568
483.90	75.9402
484.25	75.8776
484.60	75.5067
484.95	75.9154
485.30	75.5874
485.65	75.6101
486.00	75.7981
486.35	75.5276
486.70	75.7837
487.05	75.7682
487.40	75.4974
487.75	75.3840
488.10	75.5179
488.45	75.6678
488.80	75.8176
489.15	75.5935
489.50	75.9577
489.85	75.7439
490.20	75.4423
490.55	75.7558
490.90	75.7514
491.25	75.7457
491.60	75.6145
491.95	75.2800
492.30	76.0393
492.65	75.8428
493.00	75.4118
493.35	75.6536
493.70	75.9107
494.05	75.8799
494.40	75.5883
494.75	75.6034
495.10	75.5429
495.45	75.9375
495.80	75.9054
496.15	75.7205
496.50	75.6903
496.84	75.3866
497.19	75.4854
497.54	75.4635
497.89	75.3415
498.24	75.4144
498.59	75.9331
498.94	75.8123
499.29	75.5425
499.64	75.7373
499.99	75.6770
500.33	75.4707
500.68	75.4263
501.03	75.5233
501.38	75.3572
501.73	75.7396
502.08	75.3672
502.43	75.8982
502.77	75.6695
503.12	75.8337
503.47	75.4968
503.82	75.8268
504.17	75.4538
504.52	75.6582
504.86	75.4040
505.21	75.3820
505.56	75.2785
505.91	75.6404
506.26	75.3662
506.61	75.4497
506.95	75.6255
507.30	75.6122
507.65	75.3969
508.00	75.4333
508.35	75.4554
508.69	75.7549
509.04	75.8521
509.39	75.5106
509.74	75.5824
510.08	75.7010
510.43	75.5734
510.78	75.6230
511.13	75.6033
511.47	75.6750
511.82	75.3499
512.17	75.3257
512.52	75.4614
512.86	75.6231
513.21	75.5190
513.56	75.5695
513.91	75.6589
514.25	75.7851
514.60	75.5546
514.95	75.2017
515.30	75.5583
515.64	75.6040
515.99	75.5321
516.34	75.6289
516.68	75.4432
517.03	75.7096
517.38	75.2171
517.72	75.5804
518.07	75.3205
518.42	75.6002
518.76	75.8425
519.11	75.5943
519.46	75.3940
519.80	75.4149
520.15	75.3321
520.50	75.3294
520.84	75.1884
521.19	75.4847
521.54	75.5391
521.88	75.3543
522.23	75.5416
522.58	75.4961
522.92	75.7254
523.27	75.2849
523.61	75.8856
523.96	75.5606
524.31	75.5053
524.65	75.4451
525.00	75.3400
525.34	75.5487
525.69	75.5528
526.04	75.4537
526.38	75.5499
526.73	75.3716
527.07	75.5179
527.42	75.5962
527.76	75.4659
528.11	75.2595
528.46	75.5215
528.80	75.6052
529.15	75.3187
529.49	75.5375
529.84	75.0781
530.18	75.2467
530.53	75.5876
530.87	75.5272
531.22	75.1979
531.56	75.2137
531.91	75.3708
532.25	75.4025
532.60	75.4249
532.94	75.4299
533.29	75.5833
533.63	75.1414
533.98	75.3791
534.32	75.3975
534.67	75.3907
535.01	75.4873
535.36	75.3096
535.70	75.2448
536.05	75.3747
536.39	75.6981
536.74	75.2172
537.08	75.2084
537.43	75.3596
537.77	75.4033
538.12	75.3412
538.46	75.1361
538.80	75.3866
539.15	75.3478
539.49	75.5983
539.84	75.6609
540.18	75.4223
540.53	75.4478
540.87	75.0947
541.21	75.5069
541.56	75.4106
541.90	75.3676
542.25	75.3250
542.59	75.1290
542.93	75.3930
543.28	75.0339
543.62	75.5950
543.97	75.4105
544.31	75.2620
544.65	75.3769
545.00	75.2070
545.34	75.3770
545.68	75.3274
546.03	75.3414
546.37	75.3403
546.71	75.3110
547.06	75.2700
547.40	75.4558
547.74	75.3553
548.09	75.2386
548.43	75.2328
548.77	75.1598
549.12	75.2318
549.46	75.2568
549.80	75.1152
550.15	75.2031
550.49	75.2080
550.83	75.4707
551.17	75.5548
551.52	75.5021
551.86	75.5279
552.20	74.9517
552.55	75.3480
552.89	75.5521
553.23	75.1186
553.57	75.5104
553.92	75.1734
554.26	75.4041
554.60	75.2719
554.94	75.1426
555.29	75.3425
555.63	75.5426
555.97	75.2079
556.31	75.1919
556.66	75.2723
557.00	75.2422
557.34	75.1682
557.68	75.2830
558.02	75.2305
558.37	75.3413
558.71	75.2628
559.05	75.3164
559.39	75.2404
559.73	75.4300
560.08	75.2118
560.42	75.1332
560.76	75.3590
561.10	75.3218
561.44	75.2582
561.78	75.3458
562.13	75.3090
562.47	75.3227
562.81	75.3527
563.15	75.2146
563.49	75.1957
563.83	75.4276
564.17	75.3576
564.52	75.2981
564.86	75.4554
565.20	75.3344
565.54	75.2314
565.88	75.0937
566.22	75.1290
566.56	75.3138
566.90	75.3530
567.24	75.2063
567.59	75.2930
567.93	75.2154
568.27	75.3066
568.61	75.4335
568.95	75.3510
569.29	75.2145
569.63	75.3742
569.97	75.3050
570.31	75.1947
570.65	75.0193
570.99	75.5013
571.33	75.2512
571.67	75.3956
572.01	75.1813
572.35	75.2162
572.69	75.2565
573.03	75.2513
573.37	75.4380
573.71	75.3767
574.05	75.3342
574.39	75.0480
574.73	75.1646
575.07	75.2279
575.41	75.1865
575.75	74.8456
576.09	75.2953
576.43	75.1362
576.77	75.4291
577.11	75.2497
577.45	75.1107
577.79	74.9845
578.13	75.1451
578.47	75.0949
578.81	75.0377
579.15	75.0085
579.49	75.2278
579.83	75.2003
580.17	75.2659
580.51	75.0115
580.85	75.3658
581.19	75.0727
581.53	75.0170
581.87	75.1170
582.20	75.1349
582.54	75.1500
582.88	74.8493
583.22	75.1441
583.56	74.8412
583.90	74.9943
584.24	75.0642
584.58	75.3290
584.92	74.7967
585.25	74.9415
585.59	74.6810
585.93	75.1638
586.27	75.1712
586.61	75.0241
586.95	75.1214
587.29	75.0790
587.62	75.0463
587.96	75.1364
588.30	75.0510
588.64	74.9519
588.98	75.0613
589.31	75.1540
589.65	74.9323
589.99	74.9587
590.33	74.9176
590.67	75.0481
591.01	75.1160
591.34	75.1805
591.68	75.0689
592.02	75.1324
592.36	75.1941
592.69	75.0356
593.03	74.9940
593.37	75.1126
593.71	74.9635
594.04	75.0554
594.38	75.0438
594.72	74.9648
595.06	74.9620
595.39	75.0975
595.73	75.1964
596.07	75.0759
596.41	75.1744
596.74	74.8824
597.08	75.0813
597.42	74.9434
597.76	75.0494
598.09	75.0747
598.43	74.9126
598.77	75.0063
599.10	75.0633
599.44	75.0397
599.78	75.0873
600.11	75.1399
600.45	75.1119
600.79	74.9497
601.12	74.9719
601.46	75.0110
601.80	74.9960
602.13	74.9306
602.47	74.9564
602.81	75.0502
603.14	74.9698
603.48	74.9612
603.82	74.9989
604.15	74.8881
604.49	75.1058
604.82	74.9128
605.16	74.9784
605.50	74.9097
605.83	75.0695
606.17	74.9876
606.50	74.7277
606.84	75.1569
607.18	74.8726
607.51	74.8184
607.85	74.8859
608.18	74.9794
608.52	74.7978
608.86	74.9604
609.19	75.0871
609.53	74.8610
609.86	75.0745
610.20	74.8984
610.53	74.9496
610.87	74.9967
611.20	75.0348
611.54	74.6885
611.87	74.8438
612.21	75.0393
612.54	74.9154
612.88	74.7995
613.21	74.9131
613.55	75.2525
613.88	74.8346
614.22	74.8711
614.55	74.9299
614.89	75.0178
615.22	74.9771
615.56	74.9101
615.89	74.8432
616.23	74.8281
616.56	74.7348
616.90	74.9007
617.23	74.7183
617.57	74.8661
617.90	74.6104
618.24	74.6896
618.57	74.8174
618.90	74.7380
619.24	74.7236
619.57	74.8109
619.91	74.9712
620.24	74.7258
620.58	74.7625
620.91	74.6961
621.24	74.6460
621.58	74.7713
621.91	74.8494
622.25	74.8301
622.58	74.7744
622.91	74.8243
623.25	74.6008
623.58	74.8752
623.91	74.8570
624.25	74.7828
624.58	74.8270
624.92	74.6886
625.25	74.8391
625.58	74.6710
625.92	74.6766
626.25	74.7265
626.58	74.7723
626.92	74.5981
627.25	74.7354
627.58	74.6135
627.91	74.6685
628.25	74.7109
628.58	74.7892
628.91	74.6951
629.25	74.8672
629.58	74.4920
629.91	74.6041
630.25	74.5541
630.58	74.4935
630.91	74.3431
631.24	74.6724
631.58	74.6141
631.91	74.6696
632.24	74.7360
632.57	74.7014
632.91	74.5142
633.24	74.3693
633.57	74.6760
633.90	74.5913
634.24	74.5020
634.57	74.4161
634.90	74.3938
635.23	74.5283
635.56	74.4284
635.90	74.5935
636.23	74.5743
636.56	74.5006
636.89	74.5135
637.22	74.4181
637.56	74.4101
637.89	74.3972
638.22	74.6505
638.55	74.3672
638.88	74.2206
639.21	74.2044
639.55	74.4158
639.88	74.2788
640.21	74.2769
640.54	74.4231
640.87	74.4355
641.20	74.2376
641.53	74.5470
641.87	74.1236
642.20	74.2422
642.53	74.1045
642.86	74.3561
643.19	74.2236
643.52	74.4668
643.85	74.2270
644.18	74.3228
644.51	74.2620
644.84	74.3394
645.18	74.0359
645.51	74.2911
645.84	74.0453
646.17	74.1108
646.50	74.3593
646.83	74.1706
647.16	74.2144
647.49	74.1709
647.82	74.0854
648.15	74.1417
648.48	74.2053
648.81	74.1561
649.14	74.1934
649.47	74.1415
649.80	74.0151
650.13	74.1088
650.46	74.0955
650.79	74.1764
651.12	74.1867
651.45	73.9458
651.78	74.1476
652.11	73.8841
652.44	73.9614
652.77	74.0332
653.10	74.0924
653.43	74.2237
653.76	74.2054
654.09	74.1526
654.42	74.0553
654.75	74.2971
655.08	74.0256
655.41	73.9305
655.74	73.9312
656.07	73.9001
656.39	74.1183
656.72	74.2332
657.05	74.0031
657.38	74.0665
657.71	74.0069
658.04	73.8691
658.37	73.8125
658.70	73.7449
659.03	73.9792
659.36	73.9917
659.68	73.9792
660.01	73.9063
660.34	73.8094
660.67	73.7909
661.00	73.9978
661.33	73.7224
661.66	73.7643
661.98	73.8433
662.31	73.8794
662.64	74.0082
662.97	73.8668
663.30	73.8906
663.63	73.8745
663.95	73.7960
664.28	73.8230
664.61	73.7394
664.94	73.7385
665.27	73.5979
665.59	73.6827
665.92	73.7202
666.25	73.5703
666.58	73.8026
666.91	73.7697
667.23	73.4273
667.56	73.4496
667.89	73.7664
668.22	73.6595
668.54	73.8071
668.87	73.8140
669.20	73.7002
669.53	73.6283
669.85	73.7337
670.18	73.7770
670.51	73.6192
670.83	73.4507
671.16	73.7264
671.49	73.7500
671.82	73.6284
672.14	73.6616
672.47	73.4107
672.80	73.4852
673.12	73.5521
673.45	73.7330
673.78	73.4537
674.10	73.5364
674.43	73.5897
674.76	73.6354
675.08	73.4789
675.41	73.6097
675.74	73.4079
676.06	73.3747
676.39	73.4942
676.72	73.4219
677.04	73.6544
677.37	73.6853
677.69	73.5604
678.02	73.5308
678.35	73.4127
678.67	73.3905
679.00	73.2941
679.32	73.3084
679.65	73.2863
679.98	73.4716
680.30	73.3252
680.63	73.3300
680.95	73.5087
681.28	73.2747
681.60	73.3295
681.93	73.4502
682.26	73.1164
682.58	73.2918
682.91	73.3511
683.23	73.2610
683.56	73.3672
683.88	73.2847
684.21	73.1620
684.53	73.0635
684.86	73.1705
685.18	73.4169
685.51	73.1043
685.83	72.8907
686.16	73.1132
686.48	73.0973
686.81	73.0099
687.13	73.2614
687.46	73.1614
687.78	73.0257
688.11	73.0049
688.43	73.0375
688.76	73.0333
689.08	72.9948
689.41	73.0198
689.73	73.0051
690.05	73.0614
690.38	73.1288
690.70	73.3364
691.03	73.1078
691.35	72.7200
691.68	72.9183
692.00	72.9553
692.32	72.9164
692.65	72.9652
692.97	72.9083
693.29	72.8244
693.62	72.8099
693.94	72.8489
694.27	72.7654
694.59	72.8804
694.91	72.7839
695.24	72.7949
695.56	72.9126
695.88	72.8478
696.21	73.0643
696.53	72.8263
696.85	72.5454
697.18	72.7204
697.50	72.7886
697.82	72.8219
698.15	72.6684
698.47	72.6862
698.79	72.8072
699.12	72.4669
699.44	72.6631
699.76	72.6536
700.09	72.4901
700.41	72.5903
700.73	72.4864
701.05	72.6032
701.38	72.5875
701.70	72.4760
702.02	72.6607
702.34	72.6397
702.67	72.4380
702.99	72.5607
703.31	72.5874
703.63	72.4723
703.96	72.5899
704.28	72.7440
704.60	72.8733
704.92	72.3773
705.25	72.5877
705.57	72.4184
705.89	72.5414
706.21	72.5352
706.53	72.2862
706.86	72.2448
707.18	72.6083
707.50	72.4638
707.82	72.2099
708.14	72.2394
708.46	72.5550
708.79	72.6220
709.11	72.4359
709.43	72.4309
709.75	72.3457
710.07	72.1025
710.39	72.2559
710.71	72.0435
711.04	72.1188
711.36	72.3482
711.68	72.3429
712.00	72.4317
712.32	72.5010
712.64	72.4503
712.96	72.1134
713.28	71.9192
713.60	72.3934
713.92	72.1571
714.24	72.1191
714.57	72.2939
714.89	72.2498
715.21	72.4352
715.53	72.3339
715.85	72.1667
716.17	71.9880
716.49	72.2888
716.81	71.9630
717.13	72.0898
717.45	72.3365
717.77	72.1599
718.09	72.1042
718.41	72.0774
718.73	72.1978
719.05	71.9757
719.37	71.9798
719.69	71.9920
720.01	72.0434
720.33	72.3241
720.65	72.2609
720.97	72.4980
721.29	71.7074
721.61	72.1302
721.93	72.1437
722.25	72.0947
722.57	72.1565
722.89	72.1233
723.21	71.8966
723.52	72.0929
723.84	72.1252
724.16	72.1532
724.48	72.2183
724.80	72.0975
725.12	72.0364
725.44	72.2998
725.76	72.2484
726.08	71.9829
726.40	71.9505
726.72	72.0424
727.03	72.2390
727.35	72.1546
727.67	72.1310
727.99	72.1700
728.31	71.9951
728.63	71.8757
728.95	72.1719
729.26	72.0636
729.58	72.0710
729.90	72.1717
730.22	71.8859
730.54	71.9338
730.86	72.0870
731.17	71.9332
731.49	72.0581
731.81	71.9840
732.13	71.8286
732.45	72.0010
732.76	72.0650
733.08	72.1066
733.40	71.6978
733.72	72.0339
734.03	71.8951
734.35	72.0859
734.67	72.0535
734.99	72.0215
735.30	72.0066
735.62	72.2307
735.94	71.8255
736.26	71.7161
736.57	72.0703
736.89	72.3478
737.21	71.6933
737.53	71.7235
737.84	71.6662
738.16	71.5557
738.48	71.6959
738.79	72.1960
739.11	72.1092
739.43	71.8526
739.74	71.6243
740.06	72.1663
740.38	71.9440
740.69	72.0051
741.01	71.8081
741.33	71.7620
741.64	72.0596
741.96	72.0160
742.28	72.0221
742.59	72.1853
742.91	72.0329
743.23	72.0351
743.54	71.7189
743.86	71.8429
744.17	71.8644
744.49	71.6877
744.81	71.8318
745.12	71.9221
745.44	71.6325
745.75	71.9408
746.07	71.7529
746.38	71.7399
746.70	71.4411
747.02	71.9590
747.33	71.6933
747.65	71.8610
747.96	71.5507
748.28	71.5092
748.59	71.5999
748.91	71.8334
749.22	71.7192
749.54	71.6364
749.85	71.5191
750.17	71.7349
750.48	71.5337
750.80	71.9151
751.11	71.8782
751.43	71.2925
751.74	71.5948
752.06	71.2610
752.37	71.7029
752.69	71.6691
753.00	71.4950
753.32	71.8894
753.63	71.6369
753.95	71.7793
754.26	71.7786
754.58	71.5923
754.89	71.8633
755.20	71.9259
755.52	71.9445
755.83	71.4329
756.15	71.6409
756.46	71.5769
756.78	71.7457
757.09	71.5670
757.40	71.6519
757.72	71.5886
758.03	71.7521
758.34	71.6787
758.66	71.8104
758.97	71.7782
759.29	71.5414
759.60	71.4755
759.91	71.8137
760.23	71.7909
760.54	71.6911
760.85	71.8453
761.17	71.9747
761.48	71.8374
761.79	71.9288
762.11	71.5542
762.42	71.7279
762.73	71.7646
763.05	71.6507
763.36	71.8876
763.67	71.7884
763.98	71.4424
764.30	71.6706
764.61	71.5201
764.92	71.5940
765.23	71.8401
765.55	71.5745
765.86	71.7575
766.17	71.6819
766.48	71.7791
766.80	71.5411
767.11	71.6924
767.42	71.7956
767.73	71.8327
768.05	71.6363
768.36	71.8600
768.67	71.9553
768.98	71.3501
769.29	71.6969
769.61	71.8339
769.92	71.6657
770.23	71.6317
770.54	71.3913
770.85	71.2794
771.17	71.2601
771.48	71.5674
771.79	71.5734
772.10	71.7232
772.41	71.5855
772.72	71.6466
773.03	71.7480
773.35	71.8104
773.66	71.8014
773.97	71.7790
774.28	71.5792
774.59	71.2576
774.90	71.3268
775.21	71.4122
775.52	71.4732
775.83	71.5339
776.15	71.7354
776.46	71.2555
776.77	71.3826
777.08	71.6939
777.39	71.4886
777.70	71.4142
778.01	71.4374
778.32	71.6533
778.63	71.5035
778.94	71.7009
779.25	71.1485
779.56	71.5402
779.87	71.5595
780.18	71.4343
780.49	71.0386
780.80	71.4407
781.11	71.2826
781.42	71.1336
781.73	71.1500
782.04	71.1479
782.35	71.0632
782.66	71.4820
782.97	71.1840
783.28	71.4693
783.59	71.5801
783.90	71.4043
784.21	71.4347
784.52	71.6812
784.83	71.5387
785.14	71.2547
785.45	71.0507
785.76	70.9005
786.06	71.3227
786.37	71.4557
786.68	71.4878
786.99	70.9719
787.30	71.0435
787.61	71.4305
787.92	71.4541
788.23	71.6309
788.54	71.1523
788.84	70.8677
789.15	71.2887
789.46	71.3095
789.77	71.5505
790.08	71.3058
790.39	70.6162
790.70	70.7777
791.00	71.2688
791.31	71.2761
791.62	71.1523
791.93	71.1066
792.24	71.0751
792.54	71.0770
792.85	71.1864
793.16	71.2589
793.47	71.0759
793.78	70.8085
794.08	71.4134
794.39	71.3805
794.70	71.3166
795.01	70.9798
795.31	70.7170
795.62	70.9360
795.93	71.2301
796.24	71.0302
796.54	70.9418
796.85	70.9331
797.16	70.5354
797.47	71.1634
797.77	70.9719
798.08	70.8712
798.39	70.8831
798.69	70.9132
799.00	70.7875
799.31	70.7028
799.62	70.7845
799.92	70.7574
800.23	70.9239
800.54	70.8270
800.84	70.4823
801.15	70.5691
801.46	70.9815
801.76	70.5387
802.07	70.6134
802.37	70.9585
802.68	70.3810
802.99	70.1138
803.29	70.6803
803.60	70.5537
803.91	70.4920
804.21	70.6003
804.52	71.0458
804.82	70.7203
805.13	70.3419
805.44	70.7902
805.74	70.5173
806.05	70.5409
806.35	70.4836
806.66	70.9125
806.96	70.8211
807.27	70.3895
807.57	71.1932
807.88	70.8475
808.19	70.5477
808.49	70.8916
808.80	70.8781
809.10	70.8031
809.41	70.5117
809.71	70.2000
810.02	70.4849
810.32	70.4449
810.63	70.5753
810.93	70.6780
811.24	70.4879
811.54	70.7069
811.85	70.6083
812.15	70.6708
812.45	70.1371
812.76	70.5808
813.06	70.2358
813.37	70.4916
813.67	70.0805
813.98	70.2881
814.28	69.9047
814.58	70.2445
814.89	70.4212
815.19	70.2716
815.50	70.0887
815.80	70.4083
816.11	69.9189
816.41	70.1521
816.71	70.6516
817.02	70.5266
817.32	70.5261
817.62	70.3986
817.93	70.0478
818.23	70.3983
818.53	70.5937
818.84	69.6648
819.14	69.8955
819.44	70.1581
819.75	70.0134
820.05	70.2473
820.35	70.2694
820.66	70.4826
820.96	69.8741
821.26	69.6087
821.57	70.0796
821.87	70.4426
822.17	70.1788
822.48	69.8648
822.78	70.3762
823.08	69.8096
823.38	69.3818
823.69	69.8809
823.99	69.5958
824.29	69.8571
824.59	70.3106
824.90	69.8622
825.20	70.3191
825.50	69.8077
825.80	69.6396
826.10	69.4570
826.41	70.0106
826.71	69.7598
827.01	69.6414
827.31	69.3832
827.61	69.7129
827.92	69.9695
828.22	69.8649
828.52	69.5664
828.82	69.6721
829.12	69.9114
829.42	69.8111
829.73	69.2073
830.03	69.0825
830.33	69.8967
830.63	69.4766
830.93	69.4811
831.23	69.8609
831.53	69.6623
831.83	69.7605
832.14	68.9221
832.44	69.5990
832.74	69.1734
833.04	68.9173
833.34	69.3582
833.64	69.0178
833.94	69.6134
834.24	69.6843
834.54	69.4976
834.84	69.2719
835.14	69.3629
835.44	68.6986
835.74	68.5607
836.04	69.6645
836.34	69.3035
836.64	69.2141
836.95	68.9029
837.25	69.1429
837.55	69.3824
837.85	68.6791
838.15	68.2511
838.45	68.8806
838.74	69.2225
839.04	69.3911
839.34	68.8074
839.64	68.9951
839.94	68.6339
840.24	68.6696
840.54	68.6069
840.84	68.6565
841.14	68.4822
841.44	68.4263
841.74	69.4220
842.04	68.0450
842.34	68.6228
842.64	68.8920
842.94	68.1746
843.24	68.9930
843.53	68.2197
843.83	68.7507
844.13	68.4715
844.43	69.1013
844.73	68.9509
845.03	68.7470
845.33	68.3821
845.63	68.8158
845.92	68.6621
846.22	68.5113
846.52	69.1432
846.82	68.7039
847.12	68.4080
847.42	68.5548
847.71	68.8917
848.01	68.7845
848.31	67.4401
848.61	68.5173
848.91	68.0284
849.20	68.0786
849.50	68.4136
849.80	68.3948
850.10	68.0358
850.39	68.1967
850.69	67.8655
850.99	67.9834
851.29	68.1555
851.59	67.2092
851.88	68.8604
852.18	68.0945
852.48	67.3519
852.77	66.9662
853.07	68.1485
853.37	67.7593
853.67	67.1978
853.96	68.1030
854.26	67.2748
854.56	67.5484
854.85	67.6891
855.15	67.6475
855.45	68.3550
855.74	67.9126
856.04	67.3780
856.34	68.1239
856.63	67.7396
856.93	67.2160
857.23	67.0481
857.52	66.7549
857.82	67.3786
858.11	67.9059
858.41	67.7055
858.71	67.3913
859.00	67.4730
859.30	67.0676
859.59	67.0076
859.89	67.1756
860.19	66.8828
860.48	67.0824
860.78	66.3418
861.07	66.6509
861.37	67.2097
861.66	67.0298
861.96	66.8498
862.26	67.8046
862.55	67.4189
862.85	67.2015
863.14	67.6171
863.44	66.8221
863.73	66.2925
864.03	65.8706
864.32	67.3535
864.62	66.3147
864.91	66.4948
865.21	66.4409
865.50	66.0281
865.80	66.2077
866.09	66.3285
866.39	66.6078
866.68	66.5605
866.97	66.7452
867.27	67.2200
867.56	66.6790
867.86	66.9057
868.15	65.8880
868.45	65.9811
868.74	66.2682
869.03	65.7727
869.33	66.1033
869.62	66.1228
869.92	65.8213
870.21	66.3699
870.50	65.4692
870.80	66.0700
871.09	65.4858
871.39	65.2767
871.68	65.2499
871.97	66.3110
872.27	66.3403
872.56	65.7049
872.85	66.0000
873.15	66.4281
873.44	65.6085
873.73	65.7382
874.03	65.8699
874.32	66.0815
874.61	66.5708
874.90	66.3214
875.20	65.9056
875.49	65.7948
875.78	64.7324
>>>>>End Spectral Data<<<<<
